Local: ,18-Oct-24,02:55:32 PM,tz_sec ,28800
Linux Epoch (ms): ,1729234532000
Epoch Delta TS,X,Y,Z,Magnitude
72,148,10,215,261.206814612
92,139,7,223,262.866886465
112,140,8,220,260.890781746
133,131,1,214,250.914328009
153,142,7,211,254.428771958
173,147,8,208,254.827392562
194,152,3,219,266.597074253
214,147,7,216,261.369470291
234,147,3,219,263.778316016
254,136,8,219,257.916653204
275,147,3,215,260.466888491
295,152,9,211,260.203766306
315,145,7,215,259.420508056
336,137,0,212,252.414341906
356,147,3,215,260.466888491
376,142,4,211,254.363912535
396,151,9,208,257.188646717
417,144,8,212,256.405928169
437,142,3,216,258.513055763
457,135,7,215,253.966533228
478,147,7,216,261.369470291
498,147,6,214,259.69405076
518,135,7,211,250.589305438
538,152,7,212,260.954018938
559,143,7,215,258.307955743
579,136,7,220,258.73731853
599,150,3,219,265.461861668
620,143,11,215,258.447286695
640,136,6,216,255.319407801
660,139,4,215,256.050776214
681,135,3,216,254.735156584
701,145,9,211,256.17767272
721,137,11,207,248.47333861
741,152,3,214,262.505238043
762,143,9,209,253.398895025
782,153,7,223,270.530959411
802,140,7,217,258.336989221
823,134,-1,211,249.955996127
843,143,7,216,259.140888321
863,143,8,217,260.003846125
883,147,12,211,257.437371024
904,155,6,215,265.115069357
924,150,7,207,255.730326712
944,146,7,219,263.298309907
965,132,15,211,249.339126492
985,140,11,222,262.688027896
1004,151,4,209,257.872061302
1024,144,9,215,258.924699478
1045,147,7,211,257.25279396
1065,152,4,220,267.432234407
1085,148,12,211,258.009689741
1106,147,-4,215,260.480325553
1126,142,11,211,254.570226067
1146,145,1,214,258.499516441
1166,140,6,215,256.633980603
1187,145,6,215,259.395451001
1207,147,9,207,254.045271556
1227,156,7,211,262.499523809
1248,137,7,208,249.162597514
1268,145,3,219,262.668993222
1288,144,7,216,259.69405076
1308,147,1,217,262.104940816
1329,153,5,215,263.92991494
1349,152,6,209,258.497582194
1369,145,8,212,256.96886971
1390,150,7,216,263.068432162
1410,140,11,212,254.293137933
1430,143,8,216,259.169828491
1451,152,6,214,262.556660552
1471,147,7,216,261.369470291
1491,140,6,214,255.796794351
1511,148,11,211,257.96511392
1532,155,8,215,265.167871357
1552,147,8,212,258.102692741
1572,143,7,219,261.646708368
1592,147,9,209,255.677531277
1613,144,6,211,255.524949858
1633,147,6,209,255.589514652
1653,147,8,211,257.28194651
1674,150,7,214,261.428766589
1694,151,11,211,259.697901416
1714,148,6,211,257.800310318
1735,137,11,207,248.47333861
1755,148,14,209,256.478069238
1775,143,7,214,257.476212494
1795,143,7,209,253.335745603
1816,152,4,219,266.610202355
1836,152,9,215,263.457776503
1856,145,6,216,260.224902728
1877,143,5,215,258.261495388
1897,137,11,214,254.334425511
1917,140,9,220,260.923360395
1937,147,3,214,259.642061307
1958,135,6,216,254.788147291
1978,147,7,211,257.25279396
1998,142,7,219,261.101512826
2018,141,7,217,258.880281211
2038,142,3,208,251.86702841
2058,152,-1,216,264.123077371
2078,137,4,222,260.900364124
2099,150,6,209,257.326640673
2119,151,7,211,259.559241793
2139,144,4,211,255.485811739
2160,151,12,214,262.185049154
2180,135,7,219,257.361613299
2200,147,4,215,260.480325553
2220,134,4,215,253.371269089
2241,147,6,212,258.048445064
2261,140,8,212,254.181037845
2281,145,6,216,260.224902728
2302,147,4,215,260.480325553
2322,152,8,209,258.551735635
2342,143,11,213,256.78590304
2362,148,3,211,257.747938886
2383,143,7,215,258.307955743
2403,152,6,214,262.556660552
2423,148,7,214,260.286380742
2444,148,8,220,265.269674105
2464,140,3,214,255.744012638
2484,143,7,215,258.307955743
2505,145,3,214,258.514989894
2525,140,3,216,257.419890451
2545,143,3,214,257.398523694
2565,152,9,211,260.203766306
2586,152,3,211,260.065376396
2606,148,8,215,261.137894607
2626,137,7,217,256.723586762
2647,148,5,212,258.598143845
2667,147,9,224,268.078346757
2687,142,7,212,255.25869231
2707,152,4,216,264.151471698
2728,148,7,208,255.376193096
2748,150,12,214,261.610397347
2768,151,9,217,264.52032058
2789,145,4,212,256.875456204
2809,142,6,224,265.284752672
2829,144,6,216,259.669020101
2849,147,7,211,257.25279396
2870,142,12,209,252.96047122
2890,142,12,216,258.7740327
2910,152,6,212,260.929109147
2931,139,3,219,259.405088616
2951,145,5,215,259.374246987
2971,144,12,219,262.375684849
2991,140,7,211,253.317981991
3011,147,4,216,261.306333639
3031,152,7,212,260.954018938
3051,143,7,209,253.335745603
3072,151,7,214,262.003816766
3092,142,3,212,255.180328395
3112,142,9,220,262.00190839
3132,139,6,219,259.457125553
3153,137,14,212,252.802294293
3173,146,7,216,260.808358762
3193,152,6,208,257.689735923
3214,150,11,214,261.566435156
3234,147,3,217,262.120201434
3254,147,3,209,255.536690125
3275,135,7,217,255.661886092
3295,142,12,215,257.939915484
3315,140,6,212,254.125953023
3335,137,9,216,255.941399543
3356,147,7,212,258.073632903
3376,147,6,216,261.344600097
3396,150,12,217,264.07006646
3417,148,3,216,261.856831112
3437,139,4,220,260.263328189
3457,147,9,215,260.605065185
3477,143,7,214,257.476212494
3498,142,7,212,255.25869231
3518,151,7,219,266.103363376
3538,143,9,215,258.369889887
3559,150,6,214,261.403902037
3579,140,7,216,257.497572804
3599,137,7,219,258.416330753
3619,150,8,211,259.007721893
3640,142,7,207,251.121484545
3660,152,-1,214,262.48999981
3680,144,7,215,258.862898075
3701,152,11,212,261.09193783
3721,147,8,211,257.28194651
3741,151,11,211,259.697901416
3761,150,7,219,265.537191369
3782,152,7,215,263.397038708
3802,139,3,216,256.877402665
3822,147,1,216,261.277630118
3843,144,8,216,259.722929292
3863,143,12,208,252.699426196
3883,153,3,214,263.085537421
3903,153,7,215,263.97537764
3924,143,7,216,259.140888321
3944,140,7,216,257.497572804
3964,147,9,216,261.430679148
3985,143,7,214,257.476212494
4004,145,7,210,255.29198969
4024,147,4,214,259.655541054
4045,153,2,216,264.705496732
4065,145,7,216,260.249879923
4085,152,7,216,264.213928475
4105,140,3,217,258.259559358
4126,142,6,213,256.064445013
4146,148,7,216,261.933197591
4166,143,6,208,252.485643156
4187,147,1,214,259.626655026
4207,148,-1,218,263.493832945
4227,150,3,216,262.992395327
4247,150,11,214,261.566435156
4268,135,6,215,253.940938015
4288,147,9,211,257.314982074
4308,145,3,216,260.173019354
4329,147,3,215,260.466888491
4349,152,6,217,265.007547062
4369,151,7,215,262.821232019
4389,143,5,216,259.094577327
4410,147,7,214,259.719079007
4430,137,12,215,255.221472451
4450,143,9,212,255.878877596
4471,146,3,211,256.604754438
4491,147,3,214,259.642061307
4511,152,4,218,265.789390307
4531,151,12,211,259.742179863
4552,150,6,209,257.326640673
4572,150,7,214,261.428766589
4592,151,8,216,263.668352291
4613,147,8,214,259.747954756
4633,145,7,217,261.080447372
4653,143,9,211,255.050975297
4673,144,9,217,260.587797105
4694,147,8,217,262.225094146
4714,135,3,217,255.583645799
4734,147,7,211,257.25279396
4755,148,9,216,261.994274747
4775,150,7,219,265.537191369
4795,152,7,212,260.954018938
4815,151,8,216,263.668352291
4836,140,6,219,259.994230705
4856,137,11,216,256.019530505
4876,143,7,215,258.307955743
4897,143,6,212,255.790930254
4917,140,7,211,253.317981991
4937,150,8,216,263.096940309
4957,140,7,214,255.822203884
4978,147,7,211,257.25279396
4998,147,3,213,258.818469202
5017,140,11,217,258.476304523
5038,152,7,211,260.142268768
5058,147,12,214,259.901904572
5078,147,11,216,261.507170074
5099,142,7,215,257.755698288
5119,140,-1,217,258.2440706
5139,136,9,212,252.033727902
5159,147,7,212,258.073632903
5180,154,7,215,264.556232208
5200,152,7,211,260.142268768
5220,137,12,217,256.908544039
5241,145,6,214,258.567205964
5261,143,7,209,253.335745603
5281,140,3,206,249.088337744
5301,147,9,215,260.605065185
5322,139,7,219,259.482176652
5342,150,4,214,261.365644261
5362,140,6,214,255.796794351
5383,140,7,211,253.317981991
5403,147,11,211,257.392696089
5423,140,7,212,254.151529604
5443,151,4,214,261.940833014
5464,150,7,209,257.351899158
5484,153,6,209,259.086858023
5504,152,6,212,260.929109147
5525,143,7,216,259.140888321
5545,145,12,214,258.775964881
5565,139,8,216,256.984435326
5585,150,6,216,263.043722601
5606,136,9,214,253.71834778
5626,147,6,211,257.227525743
5646,151,4,216,263.577313136
5667,147,6,219,263.829490391
5687,150,12,210,258.348601699
5707,150,4,214,261.365644261
5727,143,3,216,259.063698731
5748,142,9,216,258.652276232
5768,147,10,209,255.714684756
5788,152,6,214,262.556660552
5809,139,7,212,253.602050465
5829,143,12,217,260.157644516
5849,144,6,216,259.669020101
5869,152,9,219,266.732075312
5890,140,6,217,258.311827062
5910,146,3,211,256.604754438
5930,143,7,220,262.484285244
5951,151,3,212,260.295985371
5971,150,3,215,262.171699464
5991,144,7,214,258.032943633
6011,142,7,215,257.755698288
6031,147,6,211,257.227525743
6051,148,6,215,261.084277581
6071,148,7,215,261.10917257
6092,150,7,215,262.247974253
6112,143,11,216,259.279771675
6132,140,-1,216,257.404351168
6153,135,8,219,257.390753525
6173,147,1,211,257.159483589
6193,147,9,212,258.135623268
6213,145,7,211,256.115208451
6234,150,3,219,265.461861668
6254,150,7,219,265.537191369
6274,140,6,215,256.633980603
6295,147,4,211,257.188646717
6315,140,7,216,257.497572804
6335,148,3,215,261.032565018
6355,136,9,218,257.101147411
6376,143,6,216,259.115804227
6396,144,1,212,256.28304665
6416,142,9,209,252.83591517
6437,147,4,216,261.306333639
6457,150,7,211,258.978763608
6477,140,7,214,255.822203884
6497,150,6,213,260.585878359
6518,142,7,209,252.7726251
6538,147,9,211,257.314982074
6558,151,4,216,263.577313136
6579,147,8,211,257.28194651
6599,152,9,214,262.642342359
6619,150,3,211,258.901525681
6640,148,7,215,261.10917257
6660,150,6,220,266.338130954
6680,144,6,214,258.007751822
6700,151,7,216,263.639905932
6721,145,6,215,259.395451001
6741,136,7,219,257.887572403
6761,140,7,211,253.317981991
6781,143,6,211,254.962742376
6802,141,8,216,258.071695465
6822,140,6,208,250.79872408
6842,150,3,211,258.901525681
6863,147,7,214,259.719079007
6883,147,7,209,255.61494479
6903,140,7,216,257.497572804
6923,145,7,211,256.115208451
6944,146,12,214,259.337617788
6964,147,7,211,257.25279396
6984,147,7,217,262.196491205
7004,145,7,217,261.080447372
7024,137,3,212,252.432169107
7044,140,8,220,260.890781746
7065,156,7,211,262.499523809
7085,145,8,220,263.607663015
7105,140,6,212,254.125953023
7125,147,6,214,259.69405076
7146,150,8,211,259.007721893
7166,151,11,213,261.325467569
7186,148,9,217,262.819329578
7207,148,6,219,264.387972495
7227,143,7,212,255.816340369
7247,137,7,219,258.416330753
7267,137,7,215,255.035291675
7288,143,3,216,259.063698731
7308,150,3,214,261.352252717
7328,151,7,214,262.003816766
7349,151,9,216,263.700587788
7369,140,7,219,260.019230058
7389,145,3,211,256.037106686
7409,143,8,216,259.169828491
7430,136,7,211,251.129448691
7450,143,9,216,259.202623444
7470,147,4,213,258.83199184
7491,140,9,216,257.559701817
7511,150,6,211,258.953663809
7531,147,10,216,261.467015128
7551,148,12,217,262.93915646
7572,151,6,214,261.979006793
7592,152,6,212,260.929109147
7612,148,7,211,257.825522398
7633,145,7,216,260.249879923
7653,150,3,211,258.901525681
7673,151,1,212,260.280617795
7693,134,8,216,254.314765596
7714,151,7,215,262.821232019
7734,150,6,212,259.769128266
7754,143,3,214,257.398523694
7775,151,7,214,262.003816766
7795,143,0,216,259.046327903
7815,142,11,216,258.729588567
7835,140,7,209,251.654525093
7856,147,-1,209,255.521036316
7876,153,14,211,261.009578368
7896,153,7,211,260.727827437
7917,153,11,216,264.926404875
7937,140,5,215,256.612548407
7957,144,6,216,259.669020101
7978,143,7,217,259.974998798
7998,150,6,215,262.223187381
8017,147,3,210,256.355222299
8037,150,8,214,261.457453518
8058,151,9,216,263.700587788
8078,148,8,216,261.961829281
8098,146,8,214,259.183332797
8119,151,7,209,257.936038583
8139,145,6,216,260.224902728
8159,144,7,214,258.032943633
8179,151,4,209,257.872061302
8200,148,7,215,261.10917257
8220,144,12,219,262.375684849
8240,144,-1,209,253.807013299
8261,148,7,214,260.286380742
8281,142,5,220,261.895017135
8301,152,11,214,262.718480507
8321,147,8,217,262.225094146
8342,142,6,209,252.746908982
8362,150,11,209,257.491747441
8382,148,6,218,263.560239793
8403,147,10,214,259.817243462
8423,143,8,216,259.169828491
8443,139,7,215,256.115208451
8463,145,8,219,262.773666869
8484,147,3,216,261.292939055
8504,145,10,216,260.347844239
8524,136,4,212,251.904743901
8545,150,-1,209,257.258624734
8565,151,11,215,262.958171579
8585,143,12,215,258.491779366
8605,150,8,211,259.007721893
8626,148,4,208,255.311574356
8646,150,4,214,261.365644261
8666,147,6,216,261.344600097
8687,138,9,216,256.478069238
8707,140,3,217,258.259559358
8727,145,7,211,256.115208451
8747,147,3,207,253.903524985
8768,148,8,216,261.961829281
8788,155,3,216,265.875910906
8808,144,8,214,258.062008052
8829,143,7,216,259.140888321
8849,148,4,211,257.761517686
8869,145,7,217,261.080447372
8889,151,9,211,259.620877435
8910,155,8,208,259.524565311
8930,140,11,214,255.962887935
8950,140,7,212,254.151529604
8971,145,4,216,260.186471593
8991,147,9,214,259.780676726
9010,151,3,215,262.745123646
9031,147,3,208,254.719453517
9051,151,3,211,259.482176652
9071,140,-1,216,257.404351168
9091,137,7,214,254.192840182
9112,148,7,212,258.644543727
9132,143,4,216,259.077208569
9152,148,6,214,260.261407051
9173,152,9,211,260.203766306
9193,152,7,212,260.954018938
9213,150,8,214,261.457453518
9234,143,7,219,261.646708368
9254,136,8,214,253.684843852
9274,148,6,212,258.619411491
9294,140,7,215,256.659307254
9315,140,6,216,257.47232861
9335,148,7,212,258.644543727
9355,136,9,207,247.842692045
9375,147,5,216,261.323554239
9396,151,7,216,263.639905932
9416,140,7,217,258.336989221
9436,151,7,209,257.936038583
9457,135,12,214,253.30811278
9477,148,7,211,257.825522398
9497,151,7,217,264.459826817
9517,152,12,215,263.577313136
9538,140,7,208,250.824639938
9558,137,6,212,252.485643156
9578,147,6,208,254.77244749
9599,152,7,211,260.142268768
9619,152,7,212,260.954018938
9639,150,6,215,262.223187381
9659,150,2,212,259.707527808
9680,152,7,214,262.581415946
9700,140,7,216,257.497572804
9720,143,9,209,253.398895025
9741,150,6,209,257.326640673
9761,145,4,208,253.584305508
9781,151,8,212,260.401612898
9802,144,11,211,255.691220029
9822,145,3,211,256.037106686
9842,145,8,211,256.144490474
9862,151,7,214,262.003816766
9883,152,7,214,262.581415946
9903,148,9,214,260.347844239
9923,141,3,217,258.803013893
9944,143,6,207,251.662472371
9964,148,3,212,258.567205964
9984,150,8,209,257.381040483
10003,143,7,211,254.988235023
10024,150,3,209,257.27417282
10044,140,6,216,257.47232861
10064,143,7,209,253.335745603
10085,150,12,215,262.429038027
10105,152,3,214,262.505238043
10125,152,7,214,262.581415946
10145,142,8,216,258.619411491
10166,139,9,216,257.017509131
10186,143,8,212,255.845656598
10206,147,6,216,261.344600097
10227,150,4,211,258.915043982
10247,149,0,211,258.306020061
10267,152,9,219,266.732075312
10287,140,4,215,256.595011643
10308,147,3,211,257.175037669
10328,151,9,217,264.52032058
10348,143,5,208,252.4638588
10369,147,7,207,253.982282847
10389,147,3,215,260.466888491
10409,154,6,212,262.099217855
10429,152,3,220,267.419146659
10450,145,7,216,260.249879923
10470,140,12,214,256.007812381
10490,137,7,214,254.192840182
10511,145,3,208,253.570503016
10531,140,11,207,250.139960822
10551,151,7,219,266.103363376
10571,145,8,209,254.49950884
10592,143,8,222,264.191218628
10612,147,11,215,260.681798367
10632,147,6,216,261.344600097
10653,152,4,208,257.650926643
10673,147,7,211,257.25279396
10693,151,10,216,263.736611035
10713,139,12,217,257.980619427
10734,143,7,217,259.974998798
10754,152,9,212,261.015325221
10774,152,4,215,263.334388184
10795,154,8,219,267.845104491
10815,150,12,216,263.248931622
10835,148,4,214,260.222981306
10855,147,6,216,261.344600097
10876,152,8,211,260.171097549
10896,151,9,211,259.620877435
10916,147,1,211,257.159483589
10937,148,9,215,261.170442432
10957,151,9,211,259.620877435
10977,139,7,216,256.955249022
10997,148,7,216,261.933197591
11017,145,8,214,258.621344827
11037,147,-4,209,255.550386421
11057,153,3,216,264.714941021
11078,153,9,216,264.850901452
11098,152,8,214,262.609976962
11118,145,7,216,260.249879923
11139,137,8,211,251.702204996
11159,147,6,212,258.048445064
11179,152,3,216,264.138221392
11199,145,7,215,259.420508056
11220,143,7,211,254.988235023
11240,143,6,212,255.790930254
11260,152,1,209,258.429874434
11281,152,9,212,261.015325221
11301,143,8,216,259.169828491
11321,139,3,216,256.877402665
11341,144,10,211,255.650151574
11362,152,8,214,262.609976962
11382,148,7,212,258.644543727
11402,147,3,211,257.175037669
11423,155,12,211,262.087771558
11443,148,7,207,254.562369568
11463,145,7,215,259.420508056
11483,150,6,217,263.865496039
11504,140,4,216,257.433486555
11524,148,6,212,258.619411491
11544,143,7,214,257.476212494
11565,139,7,216,256.955249022
11585,148,6,211,257.800310318
11605,147,7,216,261.369470291
11625,152,7,212,260.954018938
11646,150,6,214,261.403902037
11666,150,7,214,261.428766589
11686,150,7,215,262.247974253
11707,143,8,216,259.169828491
11727,139,7,211,252.766690844
11747,143,3,214,257.398523694
11767,150,6,211,258.953663809
11788,151,6,211,259.534198132
11808,145,1,215,259.327977665
11828,151,7,211,259.559241793
11849,143,4,211,254.923517942
11869,152,4,209,258.458894217
11889,152,7,217,265.032073531
11909,143,6,216,259.115804227
11930,136,7,215,254.49950884
11950,147,11,213,259.034746704
11970,144,7,211,255.550386421
11991,155,6,215,265.115069357
12010,152,9,209,258.584608977
12030,151,12,209,258.120127073
12051,147,4,211,257.188646717
12071,150,3,217,263.814328648
12091,135,3,217,255.583645799
12111,152,6,212,260.929109147
12132,150,9,216,263.129245809
12152,147,8,215,260.57244674
12172,150,7,212,259.79414928
12193,148,7,212,258.644543727
12213,152,-1,211,260.049995193
12233,147,3,213,258.818469202
12253,151,12,207,256.503411283
12274,147,8,209,255.644284114
12294,152,6,209,258.497582194
12314,152,9,209,258.584608977
12335,144,4,210,254.660558391
12355,147,9,212,258.135623268
12375,144,3,213,257.126428047
12395,153,4,213,262.28610333
12416,148,11,216,262.070601175
12436,148,8,212,258.673539428
12456,152,3,207,256.830683525
12477,156,8,207,259.324121516
12497,151,9,214,262.064877464
12517,156,7,214,264.916968124
12537,147,7,216,261.369470291
12558,143,9,215,258.369889887
12578,152,3,211,260.065376396
12598,152,3,214,262.505238043
12619,151,7,211,259.559241793
12639,142,6,212,255.233226677
12659,150,7,211,258.978763608
12679,150,1,211,258.88607533
12700,144,8,212,256.405928169
12720,140,7,215,256.659307254
12740,142,4,215,257.691676233
12761,147,3,211,257.175037669
12781,148,-1,212,258.551735635
12801,147,3,214,259.642061307
12822,152,7,211,260.142268768
12842,150,8,211,259.007721893
12862,143,7,209,253.335745603
12882,135,8,211,250.619233101
12903,147,7,207,253.982282847
12923,151,1,214,261.912199029
12943,147,9,212,258.135623268
12964,142,7,211,254.428771958
12984,148,7,208,255.376193096
13003,142,9,211,254.491650158
13023,140,8,212,254.181037845
